# I(t)
10	2.00E-06	1.70E+01
20	4.00E-06	2.65E+01
30	1.40E-05	8.46E+01
40	2.40E-05	1.52E+02
50	3.40E-05	2.20E+02
60	4.40E-05	2.85E+02
70	5.40E-05	3.46E+02
80	6.40E-05	4.02E+02
90	7.40E-05	4.53E+02
100	8.40E-05	4.99E+02
110	9.40E-05	5.40E+02
120	1.04E-04	5.75E+02
130	1.14E-04	6.05E+02
140	1.24E-04	6.30E+02
150	1.34E-04	6.50E+02
160	1.44E-04	6.65E+02
170	1.54E-04	6.75E+02
180	1.64E-04	6.82E+02
190	1.74E-04	6.84E+02
200	1.84E-04	6.82E+02
210	1.94E-04	6.76E+02
220	2.04E-04	6.68E+02
230	2.14E-04	6.56E+02
240	2.24E-04	6.42E+02
250	2.34E-04	6.26E+02
260	2.44E-04	6.07E+02
270	2.54E-04	5.87E+02
280	2.64E-04	5.66E+02
290	2.74E-04	5.43E+02
300	2.84E-04	5.20E+02
310	2.94E-04	4.95E+02
320	3.04E-04	4.71E+02
330	3.14E-04	4.46E+02
340	3.24E-04	4.22E+02
350	3.34E-04	3.97E+02
360	3.44E-04	3.73E+02
370	3.54E-04	3.50E+02
380	3.64E-04	3.27E+02
390	3.74E-04	3.05E+02
400	3.84E-04	2.84E+02
410	3.94E-04	2.63E+02
420	4.04E-04	2.44E+02
430	4.14E-04	2.26E+02
440	4.24E-04	2.09E+02
450	4.34E-04	1.94E+02
460	4.44E-04	1.79E+02
470	4.54E-04	1.65E+02
480	4.64E-04	1.53E+02
490	4.74E-04	1.41E+02
500	4.84E-04	1.31E+02
# Nh (T, p)
        0.5             1.5              2.5
1000	3.62E+01	1.086E+02	1.81E+02
1500	2.41E+01	7.242E+01	1.21E+02
2000	1.81E+01	5.431E+01	9.05E+01
2500	1.45E+01	4.345E+01	7.24E+01
3000	1.21E+01	3.621E+01	6.04E+01
3500	1.03E+01	3.104E+01	5.17E+01
4000	9.05E+00	2.716E+01	4.53E+01
4500	8.05E+00	2.414E+01	4.02E+01
5000	7.24E+00	2.173E+01	3.62E+01
6000	6.03E+00	1.810E+01	3.02E+01
7000	5.16E+00	1.550E+01	2.58E+01
8000	4.49E+00	1.350E+01	2.25E+01
9000	3.92E+00	1.188E+01	1.99E+01
10000	3.39E+00	1.044E+01	1.76E+01
11000	2.87E+00	9.089E+00	1.54E+01
12000	2.37E+00	7.784E+00	1.34E+01
13000	1.94E+00	6.564E+00	1.14E+01
14000	1.62E+00	5.516E+00	9.72E+00
15000	1.40E+00	4.695E+00	8.30E+00
# Коэффициент электропроводности
       0.5        1.5       2.5
 2000  0.525e-3  0.309e-3  0.239e-3
 3000  0.525e-2  0.309e-2  0.239e-2
 4000  0.525e-1  0.309e-1  0.239e-1
 5000  0.442e+0  0.270e+0  0.214e+0   
 6000  0.283e1   0.205e1   0.175e1 
 7000  0.741e1   0.606e1   0.545e1 
 8000  0.138e2   0.120e2   0.111e2 
 9000  0.220e2   0.199e2   0.188e2 
10000  0.317e2   0.296e2   0.284e2 
11000  0.428e2   0.411e2   0.399e2 
12000  0.547e2   0.541e2   0.533e2
# c(T, p)
          0.5      1.5      2.5
 2000    0.63e-3 1.90e-3  0.316e-2 
 3000    0.42e-3 1.27e-3  0.211e-2
 4000	 0.32e-3 0.95e-3  0.158e-2
 5000	 0.25e-3 0.75e-3  0.125e-2
 6000	 0.22e-3 0.64e-3  0.107e-2
 7000	 0.22e-3 0.61e-3  0.099e-2
 8000	 0.28e-3 0.66e-3  0.098e-2
 9000	 0.32e-3 0.66e-3  0.095e-2
 10000	 0.57e-3 1.15e-3  0.162e-2
 11000	 0.84e-3 1.79e-3  0.270e-2
 12000	 1.02e-3 2.02e-3  0.340e-2
 13000	 0.97e-3 2.28e-3  0.385e-2
 14000	 0.74e-3 2.42e-3  0.383e-2
 15000	 0.44e-3 1.92e-3  0.330e-2
 16000	 0.32e-3 1.39e-3  0.260e-2
 17000	 0.23e-3 0.98e-3  0.190e-2
 18000	 0.22e-3 0.75e-3  0.170e-2 
 19000	 0.26e-3 0.66e-3  0.120e-2
 20000	 0.52e-3 0.69e-3  0.110e-2
#  q(T, p)
        0.5        1.5       2.5
 5000  0.524e+1  0.456e+2  0.125e+3
 6000  0.156e+2  0.102e+3  0.254e+3
 7000  0.120e+3  0.441e+3  0.879e+3
 8000  0.858e+3  0.279e+4  0.389e+4
 9000  0.486e+4  0.138e+5  0.224e+5
10000  0.171e+5  0.480e+5  0.762e+5
11000  0.446e+5  0.123e+6  0.182e+6
12000  0.873e+5  0.247e+6  0.350e+6
